	time	x	y	theta	v	omega
0	2.56	0	0.445	0.0528	-0.00	0.405
1	2.65	0	0.445	0.0321	-0.00	0.234
2	2.75	0	0.445	0.0030	0.01	0.314
3	2.84	0	0.444	-0.0123	0.01	0.166
4	2.93	0	0.443	-0.0192	0.01	0.078
5	3.01	0	0.442	-0.0246	0.01	0.061
6	3.11	0	0.442	-0.0303	1.83	-0.909
7	3.19	0	0.441	-0.0233	0.01	-0.081
8	3.28	0	0.441	-0.0165	0.00	-0.076
9	3.37	0	0.440	-0.0151	0.01	-0.015
10	3.46	0	0.440	-0.0085	0.00	-0.074
11	3.55	0	0.440	-0.0012	0.00	-0.080
12	3.66	0	0.440	0.0025	-0.00	-0.035
13	3.75	0	0.440	0.0092	0.00	-0.071
14	3.84	0	0.440	0.0072	-0.00	0.022
15	3.94	0	0.440	0.0108	0.00	-0.040
16	4.03	0	0.440	0.0151	-0.00	-0.046
17	4.12	0	0.440	0.0135	0.00	0.019
18	4.21	0	0.440	0.0184	0.01	-0.053
19	4.31	0	0.440	0.0099	0.04	0.092
20	4.40	0	0.440	0.0015	0.04	0.089
21	4.49	0	0.440	0.0027	0.05	-0.011
22	5.15	0	0.443	0.0018	0.06	0.002
23	5.24	0	0.474	0.0162	-0.26	-0.158
24	5.33	0	0.502	0.0412	-0.19	-0.271
25	5.42	0	0.525	0.0506	-0.17	-0.096
26	5.51	0	0.544	0.0770	-0.15	-0.277
27	5.61	0	0.563	0.0506	-0.16	0.296
28	5.70	0	0.578	0.0720	-0.14	-0.212
29	5.79	0	0.591	0.0648	-0.13	0.102
30	5.89	0	0.598	0.0544	-0.08	0.118
31	5.98	0	0.603	0.0431	-0.06	0.154
32	6.07	0	0.603	0.0330	-0.02	0.143
33	6.17	0	0.600	0.0372	0.02	-0.019
34	6.25	0	0.595	0.0316	0.04	0.092
35	6.35	0	0.591	0.0323	0.04	0.022
36	6.44	0	0.587	0.0351	0.04	-0.007
37	6.53	0	0.583	0.0370	0.04	0.003
38	6.62	0	0.580	0.0414	0.04	-0.025
39	6.72	0	0.577	0.0467	0.03	-0.029
40	6.80	0	0.576	0.0503	0.03	-0.016
41	6.91	0	0.575	0.0464	0.02	0.065
42	7.00	0	0.574	0.0520	0.02	-0.029
43	7.09	0	0.573	0.0512	0.02	0.034
44	7.19	0	0.573	0.0535	0.02	0.001
45	7.28	0	0.574	0.0495	0.00	0.071
46	7.37	0	0.575	0.0459	-0.00	0.066
47	7.46	0	0.578	0.0295	-0.01	0.208
48	7.55	0	0.579	0.0139	-0.00	0.194
49	7.64	0	0.580	-0.0077	0.00	0.253
50	7.74	0	0.580	-0.0204	0.00	0.155
51	7.83	0	0.580	-0.0329	0.01	0.145
52	7.92	0	0.581	-0.0383	-0.00	0.067
53	8.01	0	0.581	-0.0388	0.01	0.012
54	8.09	0	0.581	-0.0353	0.00	-0.035
55	8.18	0	0.581	-0.0338	0.00	-0.014
56	8.27	0	0.582	-0.0312	0.00	-0.024
57	8.38	0	0.582	-0.0289	0.00	-0.017
58	8.47	0	0.583	-0.0289	-0.00	0.007
59	8.56	0	0.583	-0.0306	0.00	0.025
60	8.65	0	0.583	-0.0270	0.00	-0.032
61	8.74	0	0.583	-0.0307	0.00	0.046
62	8.83	0	0.583	-0.0360	0.00	0.068
63	8.92	0	0.583	-0.0346	0.00	-0.011
64	9.01	0	0.583	-0.0381	-0.00	0.041
65	9.10	0	0.584	-0.0406	-0.00	0.029
66	9.20	0	0.584	-0.0421	-0.00	0.016
67	9.28	0	0.585	-0.0451	-0.00	0.035
68	9.38	0	0.585	-0.0405	-0.01	-0.051
69	9.47	0	0.585	-0.0433	0.00	0.031
70	9.56	0	0.586	-0.0386	-0.00	-0.051
71	9.65	0	0.585	-0.0413	0.01	0.030
72	9.75	0	0.585	-0.0411	-0.00	0.001
73	9.84	0	0.585	-0.0429	0.01	0.021
74	9.93	0	0.584	-0.0439	0.01	0.011
75	10.02	0	0.584	-0.0445	0.00	0.006
76	10.12	0	0.584	-0.0425	-0.00	-0.022
77	10.21	0	0.584	-0.0435	-0.00	0.011
78	10.30	0	0.584	-0.0394	0.00	-0.044
79	10.39	0	0.584	-0.0389	-0.00	-0.005
80	10.49	0	0.585	-0.0348	-0.01	-0.046
81	10.58	0	0.586	-0.0299	-0.01	-0.053
82	10.67	0	0.586	-0.0264	-0.00	-0.038
83	10.76	0	0.587	-0.0243	-0.01	-0.020
84	10.85	0	0.588	-0.0214	-0.01	-0.029
85	10.94	0	0.588	-0.0214	-0.00	0.004
86	11.04	0	0.588	-0.0197	-0.01	-0.014
87	11.13	0	0.588	-0.0220	0.00	0.030
88	11.22	0	0.587	-0.0253	0.00	0.043
89	11.31	0	0.587	-0.0269	0.00	0.024
90	11.40	0	0.587	-0.0264	-0.00	0.001
91	11.49	0	0.586	-0.0256	0.00	-0.005
92	11.60	0	0.586	-0.0236	0.00	-0.015
93	11.69	0	0.586	-0.0263	0.00	0.032
94	11.78	0	0.585	-0.0260	0.01	-0.001
95	11.87	0	0.584	-0.0222	0.01	-0.040
96	11.96	0	0.584	-0.0231	0.01	0.010
97	12.05	0	0.582	-0.0216	0.01	-0.014
98	12.15	0	0.582	-0.0231	0.01	0.019
99	12.24	0	0.580	-0.0230	0.02	0.002
100	12.33	0	0.578	-0.0226	0.03	-0.001
101	12.44	0	0.574	-0.0242	0.04	0.017
102	12.53	0	0.571	-0.0232	0.05	-0.007
103	12.62	0	0.565	-0.0248	0.07	0.021
104	12.98	0	0.561	-0.0246	0.04	0.001
105	13.07	0	0.561	-0.0255	0.04	0.011
106	13.16	0	0.559	-0.0155	0.07	-0.114
107	13.27	0	0.555	-0.0084	0.07	-0.067
108	13.36	0	0.548	0.0122	0.13	-0.221
109	13.45	0	0.538	0.0112	0.15	0.016
110	13.54	0	0.547	0.0296	-0.04	-0.190
111	13.63	0	0.561	0.0141	-0.10	0.181
112	13.74	0	0.574	-0.0005	-0.07	0.160
113	13.83	0	0.584	0.0042	-0.08	-0.040
114	13.92	0	0.592	0.0063	-0.06	-0.015
115	14.01	0	0.599	-0.0001	-0.07	0.082
116	14.10	0	0.604	-0.0139	-0.04	0.163
117	14.19	0	0.607	-0.0215	-0.03	0.089
118	14.28	0	0.608	-0.0261	-0.01	0.052
119	14.37	0	0.607	-0.0321	-0.00	0.068
120	14.46	0	0.607	-0.0382	0.00	0.067
121	14.56	0	0.606	-0.0365	0.01	-0.016
122	14.65	0	0.604	-0.0375	0.02	0.010
123	14.74	0	0.603	-0.0366	0.01	-0.007
124	14.83	0	0.601	-0.0464	0.01	0.109
125	14.92	0	0.600	-0.0434	0.01	-0.033
126	15.01	0	0.599	-0.0371	0.01	-0.069
127	15.10	0	0.598	-0.0353	0.01	-0.015
128	15.21	0	0.598	-0.0386	0.01	0.037
129	15.30	0	0.597	-0.0357	0.01	-0.029
130	15.39	0	0.597	-0.0309	0.00	-0.050
131	15.48	0	0.597	-0.0307	0.00	0.000
132	15.57	0	0.597	-0.0270	0.01	-0.035
133	15.66	0	0.597	-0.0251	0.00	-0.016
134	15.75	0	0.598	-0.0288	0.00	0.044
135	15.84	0	0.598	-0.0246	-0.00	-0.042
136	15.93	0	0.598	-0.0284	-0.00	0.047
137	16.02	0	0.599	-0.0388	-0.00	0.125
138	16.11	0	0.599	-0.0318	-0.00	-0.073
139	16.21	0	0.600	-0.0235	-0.01	-0.087
140	16.30	0	0.600	-0.0299	-0.00	0.072
141	16.39	0	0.602	-0.0233	-0.03	-0.070
142	16.48	0	0.602	-0.0319	0.00	0.096
143	16.57	0	0.602	-0.0388	-0.00	0.075
144	16.66	0	0.602	-0.0384	0.00	-0.001
145	16.75	0	0.601	-0.0474	0.01	0.099
146	16.84	0	0.600	-0.0450	0.01	-0.026
147	16.94	0	0.600	-0.0328	0.01	-0.117
148	17.04	0	0.598	-0.0280	0.01	-0.051
149	17.14	0	0.598	-0.0320	0.01	0.039
150	17.24	0	0.597	-0.0267	0.01	-0.054
151	17.33	0	0.596	-0.0123	0.01	-0.160
152	17.42	0	0.595	-0.0047	0.01	-0.079
153	17.52	0	0.595	0.0020	0.01	-0.064
154	17.61	0	0.594	0.0040	0.02	-0.013
155	17.72	0	0.592	0.0074	0.02	-0.018
156	17.81	0	0.592	0.0042	0.02	0.046
157	17.91	0	0.591	0.0039	0.02	0.014
158	18.00	0	0.590	0.0050	0.03	-0.002
159	18.09	0	0.588	0.0030	0.03	0.034
160	18.18	0	0.586	-0.0031	0.03	0.079
161	18.27	0	0.584	-0.0014	0.04	-0.008
162	18.36	0	0.582	-0.0076	0.04	0.075
163	18.45	0	0.581	-0.0197	0.03	0.140
164	18.54	0	0.583	-0.0448	0.00	0.290
165	18.63	0	0.585	-0.0623	0.01	0.199
166	18.72	0	0.583	-0.0786	0.04	0.180
167	18.81	0	0.582	-0.0957	0.04	0.178
168	18.90	0	0.582	-0.0948	0.02	-0.025
169	19.00	0	0.585	-0.1025	-0.01	0.065
170	19.08	0	0.588	-0.0926	-0.02	-0.131
171	19.18	0	0.594	-0.0940	-0.04	-0.008
172	19.27	0	0.602	-0.1039	-0.08	0.091
173	19.36	0	0.609	-0.0883	-0.07	-0.184
174	19.45	0	0.614	-0.0816	-0.05	-0.090
175	19.54	0	0.617	-0.0664	-0.03	-0.174
176	19.63	0	0.619	-0.0576	-0.03	-0.107
177	19.72	0	0.619	-0.0638	-0.02	0.067
178	19.81	0	0.619	-0.0538	-0.01	-0.107
179	19.90	0	0.618	-0.0501	0.00	-0.044
180	20.00	0	0.617	-0.0474	0.00	-0.026
181	20.09	0	0.616	-0.0461	0.00	-0.005
182	20.18	0	0.615	-0.0481	0.00	0.029
183	20.29	0	0.614	-0.0477	-0.00	0.001
184	20.39	0	0.614	-0.0458	-0.00	-0.013
185	20.49	0	0.614	-0.0489	0.00	0.038
186	20.57	0	0.613	-0.0514	0.00	0.036
187	20.67	0	0.613	-0.0534	0.00	0.026
188	20.76	0	0.613	-0.0507	-0.00	-0.024
189	20.86	0	0.612	-0.0510	-0.00	0.009
190	20.95	0	0.612	-0.0539	-0.00	0.039
191	21.05	0	0.612	-0.0581	0.00	0.046
192	21.14	0	0.612	-0.0564	-0.00	-0.013
193	21.23	0	0.612	-0.0572	-0.00	0.016
194	21.32	0	0.612	-0.0577	-0.00	0.011
195	21.42	0	0.612	-0.0579	-0.00	0.008
196	21.51	0	0.612	-0.0575	-0.00	0.002
197	21.60	0	0.612	-0.0579	-0.00	0.007
198	21.69	0	0.612	-0.0669	-0.00	0.103
199	21.79	0	0.612	-0.0735	-0.00	0.074
200	21.88	0	0.613	-0.0763	-0.01	0.032
201	21.97	0	0.613	-0.0799	-0.00	0.036
202	22.06	0	0.613	-0.0692	-0.01	-0.122
203	22.16	0	0.614	-0.0533	-0.01	-0.175
204	22.25	0	0.614	-0.0341	-0.00	-0.204
205	22.34	0	0.614	-0.0179	-0.00	-0.171
206	22.44	0	0.616	-0.0039	-0.02	-0.138
207	22.53	0	0.623	0.0139	-0.08	-0.177
208	22.62	0	0.628	0.0161	-0.06	-0.005
209	22.71	0	0.632	0.0204	-0.05	-0.025
210	22.80	0	0.634	0.0244	-0.04	-0.025
211	22.89	0	0.634	0.0259	-0.03	0.005
212	22.98	0	0.634	0.0233	-0.02	0.051
213	23.07	0	0.634	0.0270	-0.02	-0.019
214	23.17	0	0.634	0.0306	-0.02	-0.017
215	23.26	0	0.632	0.0331	-0.00	-0.006
216	23.35	0	0.631	0.0361	-0.01	-0.010
217	23.44	0	0.629	0.0401	0.00	-0.024
218	23.53	0	0.627	0.0403	0.00	0.020
219	23.63	0	0.625	0.0399	0.01	0.024
220	23.72	0	0.621	0.0378	0.02	0.044
221	23.81	0	0.619	0.0359	0.01	0.041
222	23.90	0	0.618	0.0362	0.01	0.011
223	23.99	0	0.615	0.0241	0.02	0.152
224	24.10	0	0.614	0.0244	0.01	0.011
225	24.19	0	0.614	0.0201	0.01	0.058
226	24.28	0	0.611	0.0272	0.04	-0.069
227	24.36	0	0.604	0.0116	0.08	0.188
228	24.46	0	0.587	-0.0059	0.19	0.200
229	24.55	0	0.569	0.0027	0.22	-0.088
230	24.64	0	0.556	0.0105	0.16	-0.077
231	24.74	0	0.553	0.0503	0.08	-0.426
232	24.83	0	0.548	0.0419	0.10	0.094
233	24.92	0	0.545	0.0312	0.08	0.142
234	25.01	0	0.545	-0.0090	0.05	0.463
235	25.10	0	0.548	-0.0365	0.02	0.332
236	25.19	0	0.554	-0.0029	-0.02	-0.370
237	25.28	0	0.562	0.0211	-0.03	-0.254
238	25.37	0	0.570	-0.0041	-0.04	0.268
239	25.47	0	0.577	-0.0280	-0.03	0.273
240	25.56	0	0.582	-0.0471	-0.03	0.205
241	25.65	0	0.587	-0.0175	-0.03	-0.319
242	25.74	0	0.589	0.0154	0.00	-0.365
243	25.83	0	0.577	0.0345	0.14	-0.221
244	25.92	0	0.549	0.0665	0.31	-0.341
245	26.01	0	0.517	0.0301	0.37	0.413
246	26.11	0	0.476	0.0054	0.44	0.266
247	26.20	0	0.442	-0.0155	0.42	0.238
248	26.29	0	0.420	-0.0443	0.28	0.320
249	26.39	0	0.409	-0.0755	0.16	0.309
250	26.48	0	0.407	-0.0992	0.10	0.272
251	26.57	0	0.412	-0.1151	0.04	0.188
252	26.67	0	0.420	-0.1286	0.01	0.156
253	26.76	0	0.430	-0.1107	0.00	-0.184
254	26.85	0	0.444	-0.0827	-0.02	-0.290
255	26.94	0	0.461	-0.0533	-0.05	-0.323
256	27.03	0	0.480	-0.0609	-0.07	0.100
257	27.12	0	0.501	-0.0551	-0.10	-0.042
258	27.21	0	0.518	-0.0609	-0.06	0.094
259	27.30	0	0.537	-0.0640	-0.08	0.054
260	27.40	0	0.554	-0.0613	-0.07	0.002
261	27.49	0	0.566	-0.0691	-0.05	0.107
262	27.58	0	0.569	-0.0804	0.04	0.143
263	27.67	0	0.551	-0.0636	0.25	-0.157
264	27.76	0	0.513	-0.0345	0.49	-0.314
265	27.85	0	0.466	-0.0423	0.58	0.097
266	27.94	0	0.428	-0.0057	0.51	-0.401
267	28.04	0	0.399	0.0170	0.39	-0.230
268	28.13	0	0.386	0.0414	0.25	-0.254
269	28.22	0	0.386	0.0514	0.12	-0.093
270	28.31	0	0.395	0.0632	0.03	-0.119
271	28.40	0	0.408	0.0650	0.00	-0.001
272	28.49	0	0.426	0.0690	-0.05	-0.033
273	28.58	0	0.446	0.0766	-0.05	-0.066
274	28.67	0	0.462	0.0165	-0.00	0.682
275	28.77	0	0.478	-0.0204	0.01	0.412
276	28.86	0	0.497	-0.0443	-0.05	0.278
277	28.95	0	0.519	-0.0616	-0.08	0.188
278	29.04	0	0.542	-0.0694	-0.11	0.086
279	29.15	0	0.562	-0.0822	-0.05	0.115
280	29.24	0	0.576	-0.0801	-0.03	-0.031
281	29.33	0	0.570	-0.0795	0.16	-0.019
282	29.42	0	0.541	-0.0798	0.41	-0.012
283	29.51	0	0.490	-0.0974	0.64	0.185
284	29.60	0	0.442	-0.1089	0.63	0.113
285	29.69	0	0.448	-0.0690	0.04	-0.459
286	29.78	0	0.446	-0.0573	0.13	-0.140
287	29.87	0	0.418	-0.0974	0.44	0.444
288	29.96	0	0.402	-0.1176	0.31	0.227
289	30.06	0	0.397	-0.1285	0.19	0.120
290	30.15	0	0.402	-0.1456	0.10	0.192
291	30.23	0	0.416	-0.1352	0.01	-0.117
292	30.32	0	0.436	-0.1485	-0.05	0.145
293	30.42	0	0.457	-0.1662	-0.03	0.196
294	30.51	0	0.479	-0.1636	-0.06	-0.043
295	30.60	0	0.502	-0.1280	-0.07	-0.407
296	30.69	0	0.528	-0.0703	-0.10	-0.636
297	30.79	0	0.552	-0.0284	-0.10	-0.474
298	30.87	0	0.572	0.0004	-0.07	-0.332
299	30.97	0	0.583	-0.0041	0.02	0.042
300	31.06	0	0.576	-0.0179	0.18	0.155
301	31.15	0	0.542	0.0170	0.48	-0.387
302	31.24	0	0.500	0.0488	0.57	-0.365
303	31.33	0	0.457	0.0171	0.60	0.353
304	31.42	0	0.417	-0.0194	0.55	0.388
305	31.51	0	0.400	0.0021	0.32	-0.244
306	31.60	0	0.422	-0.0485	-0.09	0.548
307	31.70	0	0.418	-0.0480	0.20	-0.009
308	31.79	0	0.425	-0.0464	0.09	-0.038
309	31.88	0	0.438	-0.0433	0.02	-0.063
310	31.97	0	0.455	-0.0509	-0.01	0.053
311	32.06	0	0.471	-0.0801	-0.00	0.311
312	32.16	0	0.493	-0.0861	-0.02	0.033
313	32.25	0	0.517	-0.0584	-0.09	-0.334
314	32.35	0	0.541	-0.0258	-0.09	-0.386
315	32.44	0	0.566	-0.0138	-0.13	-0.152
316	32.53	0	0.584	0.0062	-0.07	-0.233
317	32.62	0	0.583	-0.0103	0.12	0.169
318	32.71	0	0.557	-0.0139	0.37	0.031
319	32.80	0	0.505	-0.0446	0.64	0.324
320	32.89	0	0.455	-0.0560	0.63	0.106
321	32.98	0	0.420	-0.0683	0.49	0.115
322	33.08	0	0.402	-0.0880	0.30	0.192
323	33.17	0	0.399	-0.0971	0.17	0.085
324	33.26	0	0.404	-0.1109	0.09	0.131
325	33.35	0	0.415	-0.1088	0.03	-0.037
326	33.44	0	0.432	-0.0942	-0.02	-0.182
327	33.53	0	0.452	-0.1021	-0.05	0.068
328	33.62	0	0.473	-0.0966	-0.05	-0.068
329	33.72	0	0.496	-0.0943	-0.07	-0.038
330	33.81	0	0.520	-0.1022	-0.09	0.078
331	33.90	0	0.544	-0.0928	-0.11	-0.116
332	33.99	0	0.564	-0.1106	-0.09	0.183
333	34.08	0	0.574	-0.1202	0.00	0.096
334	34.18	0	0.560	-0.1087	0.24	-0.137
335	34.27	0	0.534	-0.0982	0.38	-0.137
336	34.36	0	0.495	-0.1445	0.51	0.478
337	34.45	0	0.454	-0.1820	0.54	0.392
338	34.54	0	0.426	-0.1864	0.40	0.022
339	34.64	0	0.411	-0.1887	0.29	0.006
340	34.73	0	0.408	-0.1945	0.16	0.043
341	34.82	0	0.415	-0.1977	0.07	0.017
342	34.91	0	0.428	-0.1997	0.01	0.001
343	35.00	0	0.442	-0.2092	0.01	0.080
344	35.09	0	0.461	-0.2082	-0.03	-0.045
345	35.18	0	0.483	-0.2075	-0.06	-0.048
346	35.27	0	0.510	-0.1986	-0.11	-0.147
347	35.36	0	0.537	-0.1739	-0.12	-0.317
348	35.45	0	0.558	-0.1717	-0.08	-0.093
349	35.55	0	0.571	-0.1192	-0.01	-0.640
350	35.64	0	0.557	-0.0842	0.26	-0.443
351	35.73	0	0.522	-0.1050	0.49	0.164
352	35.82	0	0.481	-0.1195	0.53	0.111
353	35.92	0	0.443	-0.1332	0.52	0.105
354	36.00	0	0.420	-0.1455	0.38	0.091
355	36.09	0	0.415	-0.1442	0.19	-0.065
356	36.19	0	0.417	-0.1454	0.13	-0.024
357	36.28	0	0.426	-0.1363	0.06	-0.143
358	36.37	0	0.441	-0.1335	0.01	-0.076
359	36.46	0	0.458	-0.1428	-0.01	0.064
360	36.55	0	0.481	-0.1358	-0.06	-0.123
361	36.64	0	0.507	-0.1446	-0.09	0.053
362	36.73	0	0.530	-0.1349	-0.07	-0.170
363	36.82	0	0.554	-0.1427	-0.08	0.036
364	36.92	0	0.571	-0.1518	-0.04	0.041
365	37.01	0	0.572	-0.1421	0.12	-0.160
366	37.10	0	0.554	-0.1513	0.31	0.043
367	37.19	0	0.524	-0.1504	0.44	-0.074
368	37.28	0	0.489	-0.1407	0.49	-0.171
369	37.37	0	0.458	-0.1500	0.46	0.032
370	37.47	0	0.443	-0.1393	0.30	-0.184
371	37.55	0	0.435	-0.1472	0.23	0.033
372	37.66	0	0.441	-0.1367	0.11	-0.163
373	37.76	0	0.451	-0.1389	0.08	-0.045
374	37.85	0	0.471	-0.1286	-0.02	-0.173
375	37.94	0	0.496	-0.1143	-0.07	-0.230
376	38.03	0	0.523	-0.0938	-0.10	-0.306
377	38.12	0	0.546	-0.0718	-0.07	-0.311
378	38.21	0	0.570	-0.0538	-0.11	-0.270
379	38.30	0	0.593	-0.0352	-0.09	-0.278
380	38.40	0	0.604	-0.0305	0.01	-0.111
381	38.48	0	0.594	-0.0110	0.22	-0.284
382	38.57	0	0.557	-0.0408	0.51	0.275
383	38.67	0	0.508	-0.0606	0.62	0.153
384	38.76	0	0.468	-0.0666	0.57	0.013
385	38.84	0	0.447	-0.0796	0.36	0.086
386	38.94	0	0.436	-0.0800	0.25	-0.048
387	39.03	0	0.437	-0.0878	0.14	0.027
388	39.12	0	0.447	-0.0891	0.06	-0.046
389	39.23	0	0.462	-0.0850	0.04	-0.092
390	39.32	0	0.483	-0.0800	-0.04	-0.118
391	39.41	0	0.506	-0.0659	-0.07	-0.215
392	39.50	0	0.534	-0.0579	-0.14	-0.141
393	39.59	0	0.560	-0.0522	-0.12	-0.121
394	39.68	0	0.582	-0.0534	-0.10	-0.034
395	39.79	0	0.589	-0.0714	0.05	0.123
396	39.88	0	0.574	-0.0774	0.27	0.016
397	39.97	0	0.541	-0.0943	0.43	0.135
398	40.06	0	0.505	-0.1667	0.49	0.762
399	40.15	0	0.469	-0.1889	0.49	0.190
400	40.24	0	0.449	-0.1697	0.32	-0.260
401	40.33	0	0.441	-0.1598	0.20	-0.155
402	40.43	0	0.440	-0.1554	0.15	-0.095
403	40.52	0	0.449	-0.1271	0.06	-0.354
404	40.61	0	0.464	-0.0916	-0.01	-0.439
405	40.70	0	0.481	-0.1069	-0.01	0.119
406	40.79	0	0.503	-0.0949	-0.08	-0.167
407	40.90	0	0.525	-0.0856	-0.05	-0.135
408	40.98	0	0.544	-0.0792	-0.05	-0.129
409	41.07	0	0.559	-0.1103	-0.03	0.296
410	41.17	0	0.560	-0.0941	0.11	-0.232
411	41.26	0	0.549	-0.1022	0.23	0.041
412	41.35	0	0.519	-0.1246	0.43	0.167
413	41.44	0	0.479	-0.1416	0.54	0.109
414	41.53	0	0.443	-0.2042	0.52	0.612
415	41.62	0	0.425	-0.2613	0.33	0.555
416	41.72	0	0.417	-0.2923	0.23	0.259
417	41.81	0	0.419	-0.3017	0.14	0.027
418	41.90	0	0.431	-0.3044	0.04	-0.049
419	41.99	0	0.451	-0.2972	-0.03	-0.146
420	42.10	0	0.474	-0.2950	-0.02	-0.108
421	42.19	0	0.499	-0.2769	-0.08	-0.311
422	42.28	0	0.525	-0.2547	-0.09	-0.378
423	42.37	0	0.550	-0.2388	-0.10	-0.322
424	42.47	0	0.567	-0.2631	-0.02	0.119
425	42.55	0	0.569	-0.2973	0.12	0.237
426	42.66	0	0.550	-0.3338	0.31	0.157
427	42.75	0	0.525	-0.3437	0.40	-0.105
428	42.85	0	0.498	-0.4110	0.42	0.484
429	42.94	0	0.481	-0.4496	0.34	0.190
430	43.03	0	0.477	-0.4250	0.21	-0.505
431	43.12	0	0.478	-0.3588	0.17	-0.951
432	43.21	0	0.487	-0.3186	0.08	-0.678
433	43.30	0	0.504	-0.3000	0.02	-0.431
434	43.39	0	0.522	-0.2973	-0.01	-0.278
435	43.48	0	0.542	-0.2904	-0.05	-0.328
436	43.57	0	0.564	-0.2384	-0.06	-0.823
437	43.66	0	0.591	-0.1762	-0.15	-0.963
438	43.75	0	0.612	-0.1685	-0.11	-0.371
439	43.84	0	0.627	-0.1410	-0.05	-0.590
440	43.94	0	0.619	-0.1094	0.16	-0.607
441	44.03	0	0.588	-0.1132	0.42	-0.219
442	44.12	0	0.540	-0.1012	0.62	-0.388
443	44.21	0	0.552	0.0047	-0.04	-1.402
444	44.32	0	0.510	-0.0224	0.50	-0.006
445	44.41	0	0.480	-0.0503	0.42	0.059
446	44.50	0	0.462	-0.0640	0.28	-0.095
447	44.60	0	0.454	-0.0768	0.21	-0.092
448	44.69	0	0.455	-0.0716	0.11	-0.288
449	44.78	0	0.459	-0.0594	0.08	-0.362
450	44.87	0	0.473	-0.0243	-0.00	-0.624
451	44.97	0	0.494	0.0348	-0.07	-0.867
452	45.06	0	0.515	0.0428	-0.08	-0.305
453	45.15	0	0.530	0.0201	-0.02	0.043
454	45.24	0	0.536	0.0216	0.06	-0.230
455	45.33	0	0.531	0.0446	0.17	-0.464
456	45.43	0	0.522	0.0631	0.21	-0.408
457	45.52	0	0.510	0.1090	0.24	-0.703
458	45.61	0	0.496	0.1283	0.29	-0.413
459	45.71	0	0.486	0.0619	0.25	0.505
460	45.80	0	0.485	0.0065	0.16	0.406
461	45.88	0	0.499	-0.0105	0.02	-0.007
462	45.99	0	0.513	-0.0275	0.05	-0.043
463	46.08	0	0.530	-0.0152	-0.02	-0.340
464	46.17	0	0.543	0.0015	0.02	-0.390
465	46.27	0	0.557	0.0039	0.01	-0.236
466	46.36	0	0.574	0.0530	-0.04	-0.730
467	46.45	0	0.581	0.1173	0.05	-0.907
468	46.54	0	0.567	0.0852	0.27	0.168
469	46.64	0	0.545	0.1722	0.32	-1.007
470	46.74	0	0.512	0.2037	0.47	-0.498
471	46.82	0	0.482	0.1971	0.45	-0.079
472	46.91	0	0.455	0.1276	0.42	0.608
473	47.02	0	0.448	0.1214	0.20	-0.090
474	47.11	0	0.451	0.1224	0.11	-0.167
475	47.20	0	0.461	0.1214	0.05	-0.144
476	47.29	0	0.480	0.1266	-0.03	-0.206
477	47.38	0	0.500	0.1301	-0.03	-0.186
478	47.47	0	0.523	0.1357	-0.06	-0.203
479	47.56	0	0.547	0.1222	-0.09	0.004
480	47.66	0	0.573	0.0621	-0.13	0.514
481	47.75	0	0.597	-0.0823	-0.13	1.439
482	47.84	0	0.609	-0.1518	-0.01	0.629
483	47.93	0	0.595	-0.1848	0.25	0.191
484	48.03	0	0.560	-0.1740	0.45	-0.325
485	48.12	0	0.528	-0.2314	0.42	0.412
486	48.21	0	0.506	-0.2668	0.33	0.190
487	48.32	0	0.493	-0.2886	0.23	-0.011
488	48.43	0	0.493	-0.2761	0.12	-0.319
489	48.52	0	0.501	-0.2598	0.05	-0.369
490	48.61	0	0.516	-0.2294	-0.02	-0.551
491	48.70	0	0.535	-0.1832	-0.05	-0.744
492	48.79	0	0.550	-0.1121	-0.04	-1.011
493	48.88	0	0.566	-0.0522	-0.04	-0.857
494	48.98	0	0.581	-0.0376	-0.05	-0.366
495	49.07	0	0.592	-0.0433	-0.04	-0.117
496	49.16	0	0.607	0.0252	-0.08	-0.944
497	49.25	0	0.610	0.0689	0.04	-0.652
498	49.34	0	0.605	0.0299	0.11	0.245
499	49.43	0	0.577	0.0019	0.38	0.128
500	49.52	0	0.536	-0.0052	0.51	-0.120
501	49.61	0	0.498	-0.0264	0.48	0.027
502	49.70	0	0.466	-0.0454	0.46	-0.002
503	49.79	0	0.445	-0.0654	0.33	0.019
504	49.89	0	0.440	-0.0590	0.17	-0.277
505	49.98	0	0.441	-0.0559	0.11	-0.241
506	50.07	0	0.450	-0.0408	0.05	-0.369
507	50.16	0	0.471	0.0008	-0.07	-0.670
508	50.25	0	0.493	0.0291	-0.07	-0.497
509	50.34	0	0.515	0.0328	-0.12	-0.232
510	50.44	0	0.534	-0.0372	-0.05	0.523
511	50.53	0	0.566	-0.1250	-0.23	0.774
512	50.62	0	0.564	-0.2183	0.13	0.808
513	50.71	0	0.551	-0.1002	0.24	-1.519
514	50.81	0	0.535	-0.1904	0.26	0.765
515	50.91	0	0.514	-0.2234	0.29	0.093
516	51.00	0	0.500	-0.2367	0.24	-0.054
517	51.09	0	0.493	-0.2415	0.18	-0.144
518	51.18	0	0.494	-0.2305	0.12	-0.324
519	51.28	0	0.498	-0.2255	0.08	-0.250
520	51.37	0	0.508	-0.2036	0.04	-0.433
521	51.46	0	0.521	-0.1647	0.01	-0.646
522	51.57	0	0.537	-0.1100	-0.01	-0.737
523	51.66	0	0.553	-0.0794	-0.03	-0.557
524	51.75	0	0.560	-0.0280	0.05	-0.763
525	51.84	0	0.546	0.0036	0.27	-0.547
526	51.93	0	0.515	0.0379	0.44	-0.568
527	52.03	0	0.488	0.0421	0.40	-0.225
528	52.12	0	0.461	0.0203	0.41	0.063
529	52.20	0	0.449	-0.0012	0.26	0.059
530	52.30	0	0.448	0.0106	0.16	-0.309
531	52.39	0	0.453	0.0087	0.09	-0.157
532	52.48	0	0.469	0.0379	-0.01	-0.492
533	52.57	0	0.488	0.0765	-0.03	-0.598
534	52.67	0	0.510	0.0997	-0.06	-0.437
